# M82 (NGC 3034) — M81 Group — rotation curve (starburst/high-pressure test case)
# Columns: radius_kpc  velocity_kms  error_kms
# Reference: Sofue 1998; Greco et al. 2012
0.2   68.5  3.5
0.5  102.1  3.2
1.0  138.7  3.0
1.5  155.3  2.8
2.0  168.4  2.5
2.5  174.2  2.7
3.0  178.6  2.9
3.5  181.0  3.1
4.0  182.4  3.3
5.0  183.7  3.8
6.0  184.1  4.2
7.0  183.5  4.8
8.0  182.9  5.2
